<DATE>,<CLOSE>
2008-12-18,6.3453
2008-12-19,6.904
2008-12-22,6.6578
2008-12-23,6.62
2008-12-29,6.7715
2008-12-30,6.7715
2008-12-31,6.8094
2009-01-05,6.8188
2009-01-06,7.245
2009-01-07,6.9136
2009-01-08,6.7809
2009-01-12,6.8094
2009-01-13,7.1882
2009-01-14,7.2829
2009-01-15,7.0082
2009-01-16,6.9136
2009-01-19,7.3302
2009-01-20,7.0461
2009-01-21,6.7715
2009-01-22,6.9136
2009-01-23,7.0082
2009-01-26,6.6104
2009-01-27,6.5725
2009-01-28,6.6104
2009-01-29,6.5346
2009-01-30,6.44
2009-02-02,5.957
2009-02-03,5.6823
2009-02-04,5.5119
2009-02-05,5.4361
2009-02-06,5.8055
2009-02-09,5.8434
2009-02-10,6.1843
2009-02-11,6.1937
2009-02-12,6.3453
2009-02-13,6.4116
2009-02-16,5.6823
2009-02-17,5.1331
2009-02-18,5.0004
2009-02-19,5.1047
2009-02-20,5.1047
2009-02-23,5.0857
2009-02-24,5.5876
2009-02-25,5.6823
2009-02-26,5.957
2009-02-27,5.8717
2009-03-02,5.7202
2009-03-03,5.474
2009-03-04,5.6729
2009-03-05,5.9192
2009-03-06,5.9192
2009-03-09,5.5876
2009-03-10,5.5971
2009-03-11,5.6823
2009-03-12,5.6823
2009-03-13,6.4305
2009-03-16,6.0612
2009-03-17,6.2506
2009-03-18,6.3926
2009-03-19,6.5346
2009-03-20,6.6104
2009-03-23,7.0082
2009-03-24,7.0082
2009-03-25,6.9608
2009-03-26,7.2923
2009-03-27,7.1976
2009-03-30,7.1976
2009-03-31,7.1976
2009-04-01,6.8188
2009-04-02,7.2923
2009-04-03,7.2923
2009-04-06,7.3208
2009-04-07,7.387
2009-04-08,7.4818
2009-04-09,7.8605
2009-04-14,7.529
2009-04-15,7.5669
2009-04-16,7.8511
2009-04-17,7.8605
2009-04-20,7.4344
2009-04-21,7.4818
2009-04-22,8.0973
2009-04-23,8.5804
2009-04-24,8.855
2009-04-27,8.5708
2009-04-28,10.89
2009-04-29,11.335
2009-04-30,11.176
2009-05-04,11.176
2009-05-05,11.365
2009-05-06,11.318
2009-05-07,11.176
2009-05-08,11.025
2009-05-11,11.46
2009-05-12,11.365
2009-05-13,10.844
2009-05-14,10.797
2009-05-15,10.511
2009-05-18,10.89
2009-05-19,11.176
2009-05-20,11.365
2009-05-21,11.44
2009-05-22,11.46
2009-05-25,11.46
2009-05-26,11.544
2009-05-27,11.384
2009-05-28,11.394
2009-05-29,11.507
2009-06-01,11.839
2009-06-02,11.839
2009-06-03,11.895
2009-06-04,12.169
2009-06-05,12.217
2009-06-08,12.311
2009-06-09,13.211
2009-06-10,13.714
2009-06-12,14.017
2009-06-15,13.543
2009-06-16,13.543
2009-06-17,13.684
2009-06-18,13.155
2009-06-19,12.444
2009-06-22,12.69
2009-06-23,12.311
2009-06-24,12.123
2009-06-25,12.123
2009-06-26,12.378
2009-06-29,12.075
2009-06-30,13.732
2009-07-01,14.007
2009-07-02,13.912
2009-07-03,13.6
2009-07-06,13.723
2009-07-07,13.42
2009-07-08,12.975
2009-07-09,13.448
2009-07-10,13.259
2009-07-13,13.448
2009-07-14,13.306
2009-07-15,13.259
2009-07-16,13.628
2009-07-17,13.315
2009-07-20,13.59
2009-07-21,13.827
2009-07-22,14.063
2009-07-23,14.063
2009-07-24,14.073
2009-07-27,13.969
2009-07-28,13.959
2009-07-29,13.959
2009-07-30,13.95
2009-07-31,13.496
2009-08-03,13.211
2009-08-04,13.353
2009-08-05,13.448
2009-08-06,13.732
2009-08-07,13.732
2009-08-10,13.95
2009-08-11,14.68
2009-08-12,14.584
2009-08-13,14.244
2009-08-14,14.253
2009-08-17,14.632
2009-08-18,14.68
2009-08-19,14.68
2009-08-20,15.91
2009-08-21,16.631
2009-08-24,15.824
2009-08-25,17.407
2009-08-26,18.468
2009-08-27,17.397
2009-08-28,18.931
2009-08-31,18.468
2009-09-01,18.468
2009-09-02,17.284
2009-09-03,17.047
2009-09-04,17.047
2009-09-07,16.582
2009-09-08,17.426
2009-09-09,17.426
2009-09-10,16.668
2009-09-11,16.318
2009-09-14,16.299
2009-09-15,16.886
2009-09-16,16.886
2009-09-17,17.142
2009-09-18,16.763
2009-09-21,17.047
2009-09-22,17.047
2009-09-23,16.668
2009-09-24,16.952
2009-09-25,16.384
2009-09-28,15.91
2009-09-29,15.626
2009-09-30,15.626
2009-10-01,15.171
2009-10-02,15.171
2009-10-05,15.171
2009-10-06,16.005
2009-10-07,16.194
2009-10-08,16.194
2009-10-09,16.8
2009-10-12,16.763
2009-10-13,17.037
2009-10-14,16.857
2009-10-15,17.037
2009-10-16,16.952
2009-10-19,16.952
2009-10-20,16.479
2009-10-21,15.817
2009-10-22,16.1
2009-10-23,15.741
2009-10-26,15.399
2009-10-27,15.267
2009-10-28,15.296
2009-10-29,15.276
2009-10-30,16.091
2009-11-02,15.817
2009-11-03,15.768
2009-11-04,15.91
2009-11-05,15.589
2009-11-06,15.247
2009-11-09,15.247
2009-11-10,15.153
2009-11-12,15.134
2009-11-13,15.153
2009-11-16,15.153
2009-11-17,14.963
2009-11-18,15.144
2009-11-19,15.144
2009-11-20,14.963
2009-11-23,15.153
2009-11-24,15.153
2009-11-25,15.153
2009-11-26,14.68
2009-11-27,14.301
2009-11-30,15.153
2009-12-01,15.144
2009-12-02,14.49
2009-12-03,14.726
2009-12-04,14.726
2009-12-07,14.726
2009-12-08,14.396
2009-12-09,14.159
2009-12-10,14.111
2009-12-11,14.177
2009-12-14,14.149
2009-12-15,13.827
2009-12-16,13.6
2009-12-17,13.439
2009-12-18,14.205
2009-12-21,14.85
2009-12-22,14.944
2009-12-23,14.452
2009-12-28,14.301
2009-12-29,15.059
2009-12-30,15.153
2009-12-31,14.68
2010-01-04,14.963
2010-01-05,15.011
2010-01-06,15.011
2010-01-07,14.944
2010-01-08,15.059
2010-01-11,15.153
2010-01-12,15.144
2010-01-13,14.954
2010-01-14,14.68
2010-01-15,15.201
2010-01-18,15.153
2010-01-19,15.389
2010-01-20,15.333
2010-01-21,15.105
2010-01-22,14.689
2010-01-25,14.831
2010-01-26,14.831
2010-01-27,14.831
2010-01-28,15.162
2010-01-29,15.153
2010-02-01,15.201
2010-02-02,15.153
2010-02-03,15.201
2010-02-04,14.68
2010-02-05,15.059
2010-02-08,14.963
2010-02-09,15.153
2010-02-10,15.296
2010-02-11,15.153
2010-02-12,15.191
2010-02-15,15.342
2010-02-16,15.531
2010-02-17,16.1
2010-02-18,16.431
2010-02-19,16.431
2010-02-22,16.318
2010-02-23,16.289
2010-02-24,16.573
2010-02-25,17
2010-02-26,17
2010-03-01,16.839
2010-03-02,16.839
2010-03-03,16.573
2010-03-04,17.047
2010-03-05,17.047
2010-03-08,17.615
2010-03-09,17.994
2010-03-10,17.947
2010-03-11,18.136
2010-03-12,18.136
2010-03-15,17.994
2010-03-16,18.259
2010-03-17,18.326
2010-03-18,18.278
2010-03-19,17.899
2010-03-22,17.189
2010-03-23,16.289
2010-03-24,16.005
2010-03-25,16.233
2010-03-26,16.431
2010-03-29,17.189
2010-03-30,17.947
2010-03-31,17.947
2010-04-01,18.174
2010-04-06,17.994
2010-04-07,17.994
2010-04-08,17.994
2010-04-09,17.994
2010-04-12,17.473
2010-04-13,17.265
2010-04-14,17.644
2010-04-15,17.142
2010-04-16,16.857
2010-04-19,16.1
2010-04-20,16.573
2010-04-21,16.1
2010-04-22,16.194
2010-04-23,17.047
2010-04-26,16.857
2010-04-27,16.479
2010-04-28,15.863
2010-04-29,15.712
2010-04-30,15.438
2010-05-04,15.153
2010-05-05,15.438
2010-05-06,15.817
2010-05-07,15.342
2010-05-10,15.438
2010-05-11,15.598
2010-05-12,15.438
2010-05-13,15.153
2010-05-14,14.726
2010-05-17,14.594
2010-05-18,15.039
2010-05-19,15.011
2010-05-20,14.442
2010-05-21,14.205
2010-05-24,13.562
2010-05-25,13.165
2010-05-26,13.476
2010-05-27,13.069
2010-05-28,13.827
2010-05-31,13.846
2010-06-01,13.836
2010-06-02,13.836
2010-06-04,14.301
2010-06-07,14.405
2010-06-08,14.414
2010-06-09,14.225
2010-06-10,14.291
2010-06-11,14.291
2010-06-14,13.836
2010-06-15,13.922
2010-06-16,13.827
2010-06-17,13.875
2010-06-18,13.827
2010-06-21,13.827
2010-06-22,13.827
2010-06-23,13.827
2010-06-24,13.827
2010-06-25,14.291
2010-06-28,13.846
2010-06-29,13.827
2010-06-30,13.827
2010-07-01,13.827
2010-07-02,14.121
2010-07-05,14.121
2010-07-06,14.347
2010-07-07,14.774
2010-07-08,14.68
2010-07-09,15.626
2010-07-12,16.242
2010-07-13,16.47
2010-07-14,16.526
2010-07-15,16.668
2010-07-16,16.697
2010-07-19,16.754
2010-07-20,16.479
2010-07-21,16.338
2010-07-22,16.27
2010-07-23,16.338
2010-07-26,16.479
2010-07-27,16.697
2010-07-28,16.81
2010-07-29,16.857
2010-07-30,16.849
2010-08-02,16.744
2010-08-03,16.849
2010-08-04,16.925
2010-08-05,16.952
2010-08-06,16.905
2010-08-09,16.621
2010-08-10,16.763
2010-08-11,16.668
2010-08-12,16.526
2010-08-13,16.262
2010-08-16,16.1
2010-08-17,16.091
2010-08-18,16.091
2010-08-19,16.516
2010-08-20,16.289
2010-08-23,15.91
2010-08-24,15.305
2010-08-25,15.247
2010-08-26,15.438
2010-08-27,16.005
2010-08-30,16.1
2010-08-31,16.47
2010-09-01,16.355
2010-09-02,16.289
2010-09-03,16.194
2010-09-06,16.338
2010-09-07,15.817
2010-09-08,16.147
2010-09-09,16.005
2010-09-10,15.56
2010-09-13,15.541
2010-09-14,15.153
2010-09-15,14.963
2010-09-16,15.522
2010-09-17,15.56
2010-09-20,15.788
2010-09-21,15.91
2010-09-22,15.959
2010-09-23,15.692
2010-09-24,15.892
2010-09-27,15.626
2010-09-28,15.607
2010-09-29,15.531
2010-09-30,15.817
2010-10-01,15.712
2010-10-04,15.428
2010-10-05,15.484
2010-10-06,15.863
2010-10-07,15.986
2010-10-08,16.1
2010-10-11,16.052
2010-10-12,15.494
2010-10-13,15.531
2010-10-14,15.513
2010-10-15,15.494
2010-10-18,15.438
2010-10-19,15.438
2010-10-20,15.153
2010-10-21,15.379
2010-10-22,15.362
2010-10-25,14.963
2010-10-26,15.144
2010-10-27,15.162
2010-10-28,15.286
2010-10-29,15.286
2010-11-02,15.389
2010-11-03,16.091
2010-11-04,16.431
2010-11-05,16.242
2010-11-08,15.721
2010-11-09,16.697
2010-11-10,17.615
2010-11-12,17.331
2010-11-15,17.312
2010-11-16,17.142
2010-11-17,17.009
2010-11-18,17.066
2010-11-19,16.952
2010-11-22,16.876
2010-11-23,16.612
2010-11-24,17.113
2010-11-25,17.047
2010-11-26,17.142
2010-11-29,17.094
2010-11-30,17.047
2010-12-01,16.8
2010-12-02,16.925
2010-12-03,17.047
2010-12-06,16.952
2010-12-07,16.971
2010-12-08,16.81
2010-12-09,16.8
2010-12-10,16.516
2010-12-13,16.536
2010-12-14,17.047
2010-12-15,16.724
2010-12-16,16.952
2010-12-17,16.716
2010-12-20,16.839
2010-12-21,16.724
2010-12-22,16.8
2010-12-23,16.592
2010-12-27,16.631
2010-12-28,16.81
2010-12-29,16.8
2010-12-30,17.237
2010-12-31,17.492
2011-01-03,17.331
2011-01-04,17.237
2011-01-05,17.331
2011-01-07,17.284
2011-01-10,17.142
2011-01-11,17.047
2011-01-12,17.047
2011-01-13,16.952
2011-01-14,16.384
2011-01-17,16.488
2011-01-18,16.404
2011-01-19,16.1
2011-01-20,16.194
2011-01-21,16.384
2011-01-24,16.203
2011-01-25,16.11
2011-01-26,16.11
2011-01-27,16.194
2011-01-28,16.289
2011-01-31,16.176
2011-02-01,16.167
2011-02-02,16.176
2011-02-03,16.1
2011-02-04,16.1
2011-02-07,17
2011-02-08,16.915
2011-02-09,16.668
2011-02-10,16.905
2011-02-11,16.857
2011-02-14,16.734
2011-02-15,16.536
2011-02-16,16.338
2011-02-17,16.338
2011-02-18,16.338
2011-02-21,16.289
2011-02-22,16.289
2011-02-23,16.536
2011-02-24,16.763
2011-02-25,16.707
2011-02-28,16.734
2011-03-01,16.573
2011-03-02,16.925
2011-03-03,17.047
2011-03-04,17.265
2011-03-07,17.378
2011-03-08,17.473
2011-03-09,17.482
2011-03-10,17.199
2011-03-11,16.81
2011-03-14,17.094
2011-03-15,17.321
2011-03-16,17.35
2011-03-17,17.35
2011-03-18,17.189
2011-03-21,17.237
2011-03-22,17.548
2011-03-23,17.568
2011-03-24,17.284
2011-03-25,17.378
2011-03-28,17.331
2011-03-29,17.416
2011-03-30,17.378
2011-03-31,17.237
2011-04-01,17.312
2011-04-04,17.047
2011-04-05,16.763
2011-04-06,16.857
2011-04-07,16.857
2011-04-08,16.857
2011-04-11,16.582
2011-04-12,16.479
2011-04-13,16.384
2011-04-14,16.431
2011-04-15,16.299
2011-04-18,16.431
2011-04-19,16.526
2011-04-20,16.421
2011-04-21,16.147
2011-04-26,15.91
2011-04-27,15.995
2011-04-28,15.636
2011-04-29,15.626
2011-05-02,15.626
2011-05-04,15.531
2011-05-05,15.438
2011-05-06,15.153
2011-05-09,15.153
2011-05-10,15.059
2011-05-11,14.983
2011-05-12,14.954
2011-05-13,14.026
2011-05-16,13.306
2011-05-17,13.145
2011-05-18,13.097
2011-05-19,12.652
2011-05-20,12.786
2011-05-23,12.832
2011-05-24,12.832
2011-05-25,12.871
2011-05-26,12.766
2011-05-27,12.88
2011-05-30,12.832
2011-05-31,12.832
2011-06-01,12.871
2011-06-02,12.927
2011-06-03,12.927
2011-06-06,13.211
2011-06-07,13.211
2011-06-08,13.401
2011-06-09,13.572
2011-06-10,13.648
2011-06-13,13.59
2011-06-14,13.543
2011-06-15,13.259
2011-06-16,12.975
2011-06-17,12.88
2011-06-20,12.644
2011-06-21,12.265
2011-06-22,11.839
2011-06-24,10.949
2011-06-27,10.095
2011-06-28,10.181
2011-06-29,10.228
2011-06-30,10.418
2011-07-01,10.323
2011-07-04,10.029
2011-07-05,9.849
2011-07-06,9.802
2011-07-07,9.755
2011-07-08,9.736
2011-07-11,9.565
2011-07-12,9.4714
2011-07-13,9.4714
2011-07-14,9.1959
2011-07-15,8.997
2011-07-18,8.7129
2011-07-19,8.3908
2011-07-20,8.3814
2011-07-21,8.3908
2011-07-22,8.3151
2011-07-25,8.4099
2011-07-26,8.372
2011-07-27,8.1636
2011-07-28,8.3341
2011-07-29,8.2868
2011-08-01,8.6183
2011-08-02,8.6183
2011-08-03,8.3814
2011-08-04,7.5764
2011-08-05,7.2639
2011-08-08,6.724
2011-08-09,6.724
2011-08-10,6.9987
2011-08-11,7.1029
2011-08-12,7.5764
2011-08-16,8.1447
2011-08-17,8.1447
2011-08-18,7.3397
2011-08-19,7.2923
2011-08-22,7.4818
2011-08-23,7.4818
2011-08-24,7.3681
2011-08-25,7.387
2011-08-26,7.387
2011-08-29,7.4818
2011-08-30,7.4818
2011-08-31,7.3776
2011-09-01,7.2923
2011-09-02,6.9608
2011-09-05,6.4874
2011-09-06,6.3832
2011-09-07,6.4305
2011-09-08,6.5537
2011-09-09,6.7146
2011-09-12,6.3453
2011-09-13,6.2695
2011-09-14,6.1748
2011-09-15,6.0612
2011-09-16,5.7771
2011-09-19,5.7486
2011-09-20,5.758
2011-09-21,5.6823
2011-09-22,5.474
2011-09-23,5.3982
2011-09-26,5.2372
2011-09-27,5.1425
2011-09-28,5.171
2011-09-29,5.0668
2011-09-30,5.0194
2011-10-03,4.7448
2011-10-04,4.7353
2011-10-05,4.8205
2011-10-06,4.8774
2011-10-07,4.8774
2011-10-10,4.8869
2011-10-11,4.8583
2011-10-12,4.8395
2011-10-13,4.8395
2011-10-14,5.3982
2011-10-17,5.815
2011-10-18,5.4266
2011-10-19,5.3509
2011-10-20,5.2751
2011-10-21,5.5403
2011-10-24,5.7297
2011-10-25,5.4644
2011-10-26,5.3698
2011-10-27,5.8338
2011-10-28,5.7959
2011-10-31,5.7297
2011-11-02,5.4929
2011-11-03,5.7771
2011-11-04,5.8055
2011-11-07,5.7771
2011-11-08,5.7771
2011-11-09,5.5876
2011-11-10,5.4929
2011-11-14,5.5119
2011-11-15,5.2089
2011-11-16,5.152
2011-11-17,5.1425
2011-11-18,4.849
2011-11-21,4.6121
2011-11-22,4.2808
2011-11-23,4.2049
2011-11-24,4.186
2011-11-25,4.1575
2011-11-28,3.9871
2011-11-29,4.1575
2011-11-30,4.2524
2011-12-01,4.1575
2011-12-02,4.0912
2011-12-05,3.9776
2011-12-06,4.0629
2011-12-07,3.9776
2011-12-08,3.8356
2011-12-09,3.9018
2011-12-12,3.9493
2011-12-13,4.0629
2011-12-14,4.0724
2011-12-15,4.0724
2011-12-16,4.0724
2011-12-19,4.0533
2011-12-20,4.1197
2011-12-21,4.1766
2011-12-22,4.2145
2011-12-23,4.2238
2011-12-27,4.167
2011-12-28,4.167
2011-12-29,4.167
2011-12-30,4.167
2012-01-02,4.1291
2012-01-03,4.1575
2012-01-04,4.0439
2012-01-05,4.0629
2012-01-09,4.1387
2012-01-10,4.2428
2012-01-11,4.5648
2012-01-12,4.8205
2012-01-13,4.7353
2012-01-16,4.8111
2012-01-17,5.2089
2012-01-18,5.5213
2012-01-19,5.5308
2012-01-20,5.3982
2012-01-23,5.3414
2012-01-24,5.815
2012-01-25,6.2032
2012-01-26,6.5158
2012-01-27,6.7715
2012-01-30,6.8188
2012-01-31,6.9136
2012-02-01,6.8566
2012-02-02,6.9136
2012-02-03,6.9136
2012-02-06,6.904
2012-02-07,6.8188
2012-02-08,6.9229
2012-02-09,6.8661
2012-02-10,6.7999
2012-02-13,7.2923
2012-02-14,7.1882
2012-02-15,7.6523
2012-02-16,7.5764
2012-02-17,7.7659
2012-02-20,8.3246
2012-02-21,7.7848
2012-02-22,7.5764
2012-02-23,7.7659
2012-02-24,7.6238
2012-02-27,7.5669
2012-02-28,7.4912
2012-02-29,6.7715
2012-03-01,7.1029
2012-03-02,7.0934
2012-03-05,7.0366
2012-03-06,6.7525
2012-03-07,6.9136
2012-03-08,7.0745
2012-03-09,7.0082
2012-03-12,6.8188
2012-03-13,6.8188
2012-03-14,6.8188
2012-03-15,6.8188
2012-03-16,6.3737
2012-03-19,6.62
2012-03-20,6.62
2012-03-21,6.2506
2012-03-22,6.1274
2012-03-23,6.2316
2012-03-26,6.1937
2012-03-27,6.3263
2012-03-28,6.5537
2012-03-29,6.62
2012-03-30,6.601
2012-04-02,6.62
2012-04-03,6.44
2012-04-04,6.0801
2012-04-05,6.0801
2012-04-10,5.7676
2012-04-11,5.7676
2012-04-12,5.7486
2012-04-13,5.6823
2012-04-16,5.8529
2012-04-17,5.7771
2012-04-18,6.0612
2012-04-19,6.1558
2012-04-20,6.2316
2012-04-23,5.8338
2012-04-24,6.1464
2012-04-25,5.6729
2012-04-26,5.3319
2012-04-27,5.6729
2012-04-30,5.7771
2012-05-02,5.7771
2012-05-04,5.8529
2012-05-07,5.6823
2012-05-08,5.5876
2012-05-09,5.5119
2012-05-10,5.4929
2012-05-11,5.3982
2012-05-14,5.3793
2012-05-15,5.3414
2012-05-16,5.0194
2012-05-17,4.6595
2012-05-18,5.0099
2012-05-21,5.6729
2012-05-22,5.6634
2012-05-23,5.4929
2012-05-24,5.3035
2012-05-25,5.2089
2012-05-28,5.1614
2012-05-29,5.0478
2012-05-30,4.8299
2012-05-31,4.7353
2012-06-01,4.6879
2012-06-04,4.4227
2012-06-05,4.1954
2012-06-06,4.0724
2012-06-08,4.3659
2012-06-11,4.5459
2012-06-12,4.6595
2012-06-13,5.1141
2012-06-14,5.5687
2012-06-15,5.8622
2012-06-18,5.8622
2012-06-19,5.8529
2012-06-20,5.3982
2012-06-21,5.0668
2012-06-22,4.8111
2012-06-25,4.5553
2012-06-26,4.7163
2012-06-27,4.6311
2012-06-28,4.4227
2012-06-29,4.0155
2012-07-02,3.5988
2012-07-03,3.3526
2012-07-04,3.2673
2012-07-05,3.4946
2012-07-06,3.6178
2012-07-09,3.7788
2012-07-10,3.7693
2012-07-11,3.5515
2012-07-12,3.4189
2012-07-13,3.4757
2012-07-16,3.4757
2012-07-17,3.4473
2012-07-18,3.6178
2012-07-19,3.5042
2012-07-20,3.4757
2012-07-23,3.4284
2012-07-24,3.4094
2012-07-25,3.4094
2012-07-26,3.3147
2012-07-27,3.381
2012-07-30,3.3904
2012-07-31,3.3147
2012-08-01,3.1822
2012-08-02,3.1822
2012-08-03,3.1064
2012-08-06,3.0969
2012-08-07,3.2485
2012-08-08,3.3431
2012-08-09,3.3431
2012-08-10,3.3431
2012-08-13,3.3904
2012-08-14,3.2578
2012-08-16,3.2768
2012-08-17,3.2863
2012-08-20,3.2957
2012-08-21,3.3052
2012-08-22,3.3147
2012-08-23,3.3715
2012-08-24,3.5042
2012-08-27,3.4946
2012-08-28,3.3999
2012-08-29,3.4094
2012-08-30,3.3999
2012-08-31,3.3621
2012-09-03,3.3621
2012-09-04,3.3431
2012-09-05,3.2485
2012-09-06,3.2485
2012-09-07,3.3052
2012-09-10,3.4094
2012-09-11,3.3904
2012-09-12,3.4094
2012-09-13,3.4094
2012-09-14,3.4094
2012-09-17,3.3999
2012-09-18,3.3336
2012-09-19,3.3621
2012-09-20,3.1536
2012-09-21,3.2578
2012-09-24,3.3621
2012-09-25,3.3715
2012-09-26,3.3999
2012-09-27,3.5893
2012-09-28,3.4946
2012-10-01,3.5042
2012-10-02,3.5042
2012-10-03,3.4946
2012-10-04,3.4473
2012-10-05,3.4473
2012-10-08,3.4852
2012-10-09,3.5042
2012-10-10,3.5042
2012-10-11,3.5042
2012-10-12,3.5042
2012-10-15,3.5042
2012-10-16,3.4946
2012-10-17,3.5042
2012-10-18,3.5042
2012-10-19,3.4757
2012-10-22,3.5042
2012-10-23,3.4567
2012-10-24,3.3715
2012-10-25,3.381
2012-10-26,3.3999
2012-10-29,3.2768
2012-10-30,3.3431
2012-10-31,3.4473
2012-11-02,3.3621
2012-11-05,3.3999
2012-11-06,3.4094
2012-11-07,3.4094
2012-11-08,3.4094
2012-11-09,3.3904
2012-11-12,3.3999
2012-11-13,3.3621
2012-11-14,3.3621
2012-11-15,3.2389
2012-11-16,3.1443
2012-11-19,3.201
2012-11-20,3.2863
2012-11-21,3.2863
2012-11-22,3.3052
2012-11-23,3.3052
2012-11-26,3.2957
2012-11-27,3.2673
2012-11-28,3.1915
2012-11-29,3.0022
2012-11-30,3.2673
2012-12-03,3.4094
2012-12-04,3.3621
2012-12-05,3.3999
2012-12-06,3.381
2012-12-07,3.3621
2012-12-10,3.381
2012-12-11,3.3904
2012-12-12,3.3621
2012-12-13,3.684
2012-12-14,3.7788
2012-12-17,3.6556
2012-12-18,3.5988
2012-12-19,3.684
2012-12-20,3.6556
2012-12-21,3.5988
2012-12-27,3.6178
2012-12-28,3.6935
2013-01-02,3.6367
2013-01-03,3.5988
2013-01-04,3.5799
2013-01-07,3.542
2013-01-08,3.4946
2013-01-09,3.5136
2013-01-10,3.5042
2013-01-11,3.5515
2013-01-14,3.5515
2013-01-15,3.4852
2013-01-16,3.5325
2013-01-17,3.5515
2013-01-18,3.5609
2013-01-21,4.0912
2013-01-22,3.9871
2013-01-23,3.9681
2013-01-24,4.1197
2013-01-25,4.0912
2013-01-28,4.2808
2013-01-29,4.3091
2013-01-30,4.2808
2013-01-31,4.186
2013-02-01,4.0439
2013-02-04,4.0533
2013-02-05,4.1387
2013-02-06,4.1008
2013-02-07,4.0533
2013-02-08,4.0533
2013-02-11,4.1575
2013-02-12,4.2238
2013-02-13,4.186
2013-02-14,4.1575
2013-02-15,4.2145
2013-02-18,4.4038
2013-02-19,4.6121
2013-02-20,4.4038
2013-02-21,4.4796
2013-02-22,4.5364
2013-02-25,4.6406
2013-02-26,4.8111
2013-02-27,4.7069
2013-02-28,4.7069
2013-03-01,4.7163
2013-03-04,4.5459
2013-03-05,4.4512
2013-03-06,4.5459
2013-03-07,4.5364
2013-03-08,4.489
2013-03-11,4.4985
2013-03-12,4.4417
2013-03-13,4.3754
2013-03-14,4.3375
2013-03-15,4.3091
2013-03-18,4.489
2013-03-19,4.4606
2013-03-20,4.4701
2013-03-21,4.3849
2013-03-22,4.2428
2013-03-25,4.1575
2013-03-26,3.8924
2013-03-27,3.9871
2013-03-28,4.0533
2013-04-02,3.9397
2013-04-03,3.9018
2013-04-04,3.7882
2013-04-05,3.7882
2013-04-08,3.7976
2013-04-09,3.8356
2013-04-10,3.5893
2013-04-11,3.5988
2013-04-12,3.4946
2013-04-15,3.5136
2013-04-17,3.4757
2013-04-18,3.2863
2013-04-19,3.3242
2013-04-22,3.2673
2013-04-23,3.22
2013-04-24,3.2768
2013-04-25,3.1727
2013-04-26,3.2578
2013-04-29,3.3242
2013-04-30,3.3147
2013-05-02,3.3052
2013-05-06,3.22
2013-05-07,3.2957
2013-05-08,3.3431
2013-05-09,3.381
2013-05-10,3.4663
2013-05-13,3.5988
2013-05-14,3.7314
2013-05-15,4.167
2013-05-16,4.2238
2013-05-17,4.2428
2013-05-20,4.167
2013-05-21,4.167
2013-05-22,4.0912
2013-05-23,4.0629
2013-05-24,4.0533
2013-05-27,4.1575
2013-05-28,4.0724
2013-05-29,4.0629
2013-05-31,4.0912
2013-06-03,4.1575
2013-06-04,4.1008
2013-06-05,4.0818
2013-06-06,4.0155
2013-06-07,3.9776
2013-06-10,4.2049
2013-06-11,4.167
2013-06-12,4.025
2013-06-13,4.1575
2013-06-14,4.2238
2013-06-17,4.2428
2013-06-18,4.3091
2013-06-19,4.489
2013-06-20,4.4701
2013-06-21,4.2901
2013-06-24,4.1481
2013-06-25,4.1575
2013-06-26,4.1008
2013-06-27,3.9871
2013-06-28,3.9587
2013-07-01,3.8072
2013-07-02,3.9303
2013-07-03,4.0439
2013-07-04,3.9587
2013-07-05,3.9018
2013-07-08,3.9303
2013-07-09,3.883
2013-07-10,3.9303
2013-07-11,3.883
2013-07-12,3.8639
2013-07-15,3.883
2013-07-16,3.9587
2013-07-17,3.9587
2013-07-18,3.9303
2013-07-22,3.7409
2013-07-23,3.7125
2013-07-24,3.7976
2013-07-25,3.9776
2013-07-26,3.9493
2013-07-29,3.9776
2013-07-30,3.9208
2013-07-31,3.8639
2013-08-01,3.8072
2013-08-02,3.883
2013-08-05,3.883
2013-08-06,3.9776
2013-08-07,4.167
2013-08-08,4.3944
2013-08-09,4.3565
2013-08-12,4.2145
2013-08-13,4.167
2013-08-14,4.4512
2013-08-16,4.3565
2013-08-19,4.5459
2013-08-20,4.6027
2013-08-21,4.4796
2013-08-22,4.5364
2013-08-23,4.5459
2013-08-26,4.6406
2013-08-27,4.6406
2013-08-28,4.6406
2013-08-29,4.5742
2013-08-30,4.5838
2013-09-02,4.4038
2013-09-03,4.65
2013-09-04,4.6879
2013-09-05,4.6406
2013-09-06,4.6311
2013-09-09,4.6311
2013-09-10,4.8869
2013-09-11,5.0668
2013-09-12,5.0478
2013-09-13,5.7013
2013-09-16,6.118
2013-09-17,6.4116
2013-09-18,6.2411
2013-09-19,6.3547
2013-09-20,6.3547
2013-09-23,6.0706
2013-09-24,5.957
2013-09-25,6.0233
2013-09-26,5.9664
2013-09-27,5.9001
2013-09-30,5.938
2013-10-01,5.8434
2013-10-02,5.7771
2013-10-03,5.8434
2013-10-04,6.0043
2013-10-07,5.8622
2013-10-08,5.7865
2013-10-09,5.7771
2013-10-10,6.0612
2013-10-11,6.0422
2013-10-14,6.0422
2013-10-15,5.9855
2013-10-16,5.9855
2013-10-17,5.9192
2013-10-18,6.0138
2013-10-21,6.0612
2013-10-22,6.2221
2013-10-23,6.2506
2013-10-24,6.3453
2013-10-25,6.3358
2013-10-28,6.5821
2013-10-29,6.6294
2013-10-30,6.6388
2013-10-31,6.601
2013-11-04,6.6767
2013-11-05,6.6388
2013-11-06,6.6767
2013-11-07,6.724
2013-11-08,6.5063
2013-11-12,6.6104
2013-11-13,6.6294
2013-11-14,6.6294
2013-11-15,6.9608
2013-11-18,7.0082
2013-11-19,7.4344
2013-11-20,7.3681
2013-11-21,7.2829
2013-11-22,7.3776
2013-11-25,7.387
2013-11-26,7.1976
2013-11-27,6.9608
2013-11-28,6.8852
2013-11-29,6.8757
2013-12-02,6.8757
2013-12-03,6.8661
2013-12-04,6.7715
2013-12-05,6.7903
2013-12-06,6.7146
2013-12-09,6.7431
2013-12-10,6.7431
2013-12-11,6.8188
2013-12-12,6.7715
2013-12-13,6.8188
2013-12-16,6.6767
2013-12-17,6.44
2013-12-18,6.5631
2013-12-19,6.5631
2013-12-20,6.5252
2013-12-23,6.5631
2013-12-27,6.5631
2013-12-30,6.5252
2014-01-02,6.6104
2014-01-03,6.6388
2014-01-07,6.4967
2014-01-08,6.62
2014-01-09,6.5631
2014-01-10,6.9136
2014-01-13,6.904
2014-01-14,6.8188
2014-01-15,6.724
2014-01-16,6.724
2014-01-17,6.724
2014-01-20,6.724
2014-01-21,6.8566
2014-01-22,6.9324
2014-01-23,7.1787
2014-01-24,7.245
2014-01-27,7.2166
2014-01-28,7.4818
2014-01-29,7.7375
2014-01-30,8.2015
2014-01-31,8.192
2014-02-03,8.3151
2014-02-04,8.2299
2014-02-05,7.9931
2014-02-06,7.709
2014-02-07,7.6711
2014-02-10,7.5954
2014-02-11,7.5669
2014-02-12,7.8605
2014-02-13,7.9268
2014-02-14,7.8132
2014-02-17,7.7375
2014-02-18,7.6711
2014-02-19,7.6711
2014-02-20,7.6711
2014-02-21,7.7185
2014-02-24,7.6711
2014-02-25,7.529
2014-02-26,7.3018
2014-02-27,7.1313
2014-02-28,7.2923
2014-03-03,6.724
2014-03-04,6.8661
2014-03-05,7.1029
2014-03-06,6.9136
2014-03-07,6.8188
2014-03-10,6.62
2014-03-11,6.7903
2014-03-12,6.6294
2014-03-13,6.6673
2014-03-14,6.3926
2014-03-17,6.5346
2014-03-18,6.5725
2014-03-19,7.1029
2014-03-20,7.245
2014-03-21,7.2639
2014-03-24,6.9798
2014-03-25,7.0366
2014-03-26,6.9798
2014-03-27,6.8378
2014-03-28,6.6294
2014-03-31,6.9515
2014-04-01,6.6294
2014-04-02,6.5631
2014-04-03,6.6294
2014-04-04,6.6388
2014-04-07,6.4779
2014-04-08,6.4874
2014-04-09,6.4967
2014-04-10,6.4874
2014-04-11,6.4495
2014-04-14,6.3169
2014-04-15,6.0612
2014-04-16,5.9855
2014-04-17,5.9192
2014-04-22,6.1558
2014-04-23,6.0612
2014-04-24,5.9192
2014-04-25,5.9759
2014-04-28,5.9759
2014-04-29,6.0138
2014-04-30,5.9476
2014-05-02,5.938
2014-05-05,5.8243
2014-05-06,5.8243
2014-05-07,5.6729
2014-05-08,5.5876
2014-05-09,5.3509
2014-05-12,5.3224
2014-05-13,5.3035
2014-05-14,5.3035
2014-05-15,5.5498
2014-05-16,5.5119
2014-05-19,5.4266
2014-05-20,5.455
2014-05-21,5.455
2014-05-22,5.5023
2014-05-23,5.4456
2014-05-26,5.4456
2014-05-27,5.4929
2014-05-28,5.5023
2014-05-29,5.5119
2014-05-30,5.5213
2014-06-02,5.5403
2014-06-03,5.5403
2014-06-04,5.5876
2014-06-05,5.635
2014-06-06,5.6823
2014-06-09,5.635
2014-06-10,5.6444
2014-06-11,5.5971
2014-06-12,5.5782
2014-06-13,5.5213
2014-06-16,5.4644
2014-06-17,5.4644
2014-06-18,5.4929
2014-06-20,5.4929
2014-06-23,5.5876
2014-06-24,5.5687
2014-06-25,5.5213
2014-06-26,5.8135
2014-06-27,5.7453
2014-06-30,5.6869
2014-07-01,5.5018
2014-07-03,5.5018
2014-07-04,5.4044
2014-07-07,5.3364
2014-07-08,5.3071
2014-07-10,5.2
2014-07-11,5.2292
2014-07-14,5.2584
2014-07-15,5.2098
2014-07-16,5.2486
2014-07-17,5.2486
2014-07-18,5.2876
2014-07-21,5.2486
2014-07-22,5.2292
2014-07-23,5.1124
2014-07-24,5.0831
2014-07-25,4.976
2014-07-28,5.015
2014-07-29,5.1416
2014-07-30,5.0929
2014-07-31,5.0539
2014-08-01,5.0052
2014-08-04,4.9955
2014-08-05,4.8397
2014-08-06,4.7521
2014-08-07,4.5768
2014-08-08,4.4989
2014-08-11,4.5475
2014-08-12,4.5963
2014-08-13,4.6157
2014-08-14,4.5573
2014-08-18,4.5281
2014-08-19,4.5475
2014-08-20,4.5865
2014-08-21,4.8397
2014-08-22,4.8203
2014-08-25,5.0052
2014-08-26,5.1124
2014-08-27,5.3752
2014-08-28,5.1124
2014-08-29,5.0539
2014-09-01,4.9371
2014-09-02,4.9273
2014-09-03,4.9955
2014-09-04,5.0247
2014-09-05,4.9468
2014-09-08,5.0539
2014-09-09,5.1902
2014-09-10,5.3266
2014-09-11,4.976
2014-09-12,4.9955
2014-09-15,5.1318
2014-09-16,5.161
2014-09-17,5.161
2014-09-18,5.1708
2014-09-19,5.2584
2014-09-22,5.2584
2014-09-23,5.0831
2014-09-24,4.9176
2014-09-25,5.0929
2014-09-29,5.0442
2014-09-30,5.1124
2014-10-01,4.9955
2014-10-02,4.9468
2014-10-03,5.0637
2014-10-06,4.976
2014-10-07,4.9857
2014-10-08,4.9857
2014-10-09,4.8397
2014-10-10,4.6255
2014-10-13,4.6644
2014-10-14,4.6255
2014-10-15,4.567
2014-10-16,4.4307
2014-10-17,4.5768
2014-10-20,4.5378
2014-10-21,4.5768
2014-10-22,4.6352
2014-10-23,4.5573
2014-10-24,4.6741
2014-10-27,4.7325
2014-10-28,4.8591
2014-10-29,4.8203
2014-10-30,4.8591
2014-10-31,4.7813
2014-11-03,4.7617
2014-11-04,4.7423
2014-11-05,4.7715
2014-11-06,4.7229
2014-11-07,4.6741
2014-11-10,4.6255
2014-11-12,4.7229
2014-11-13,4.6644
2014-11-14,4.6644
2014-11-17,4.5475
2014-11-18,4.5475
2014-11-19,4.4696
2014-11-20,4.2846
2014-11-21,4.1678
2014-11-24,4.0607
2014-11-25,3.8951
2014-11-26,4.012
2014-11-27,4.0412
2014-11-28,4.0412
2014-12-01,4.0802
2014-12-02,4.0996
2014-12-03,4.3626
2014-12-04,4.4794
2014-12-05,4.3918
2014-12-08,4.2748
2014-12-09,4.2068
2014-12-10,4.1288
2014-12-11,4.0899
2014-12-12,4.0899
2014-12-15,4.1288
2014-12-16,3.9438
2014-12-17,3.8951
2014-12-18,3.8951
2014-12-19,3.9146
2014-12-22,3.8561
2014-12-23,3.7977
2014-12-29,3.8367
2014-12-30,3.9146
2015-01-02,3.8659
2015-01-05,3.8367
2015-01-07,3.8951
2015-01-08,3.9925
2015-01-09,4.0509
2015-01-12,4.3334
2015-01-13,4.2652
2015-01-14,4.236
2015-01-15,4.2846
2015-01-16,4.382
2015-01-19,4.2846
2015-01-20,4.236
2015-01-21,4.2164
2015-01-22,4.2164
2015-01-23,4.1872
2015-01-26,4.2554
2015-01-27,4.2554
2015-01-28,4.1191
2015-01-29,4.1678
2015-01-30,4.158
2015-02-02,4.0899
2015-02-03,4.1094
2015-02-04,4.3334
2015-02-05,4.3334
2015-02-06,4.382
2015-02-09,4.382
2015-02-10,4.567
2015-02-11,4.5768
2015-02-12,4.7617
2015-02-13,4.976
2015-02-16,4.8689
2015-02-17,4.7521
2015-02-18,4.7325
2015-02-19,4.6741
2015-02-20,4.7617
2015-02-23,4.9468
2015-02-24,4.9176
2015-02-25,4.9371
2015-02-26,5.3168
2015-02-27,5.5213
2015-03-02,5.4434
2015-03-03,5.2584
2015-03-04,5.2
2015-03-05,5.3266
2015-03-06,5.4044
2015-03-09,5.4532
2015-03-10,5.3656
2015-03-11,5.2098
2015-03-12,5.0442
2015-03-13,4.9955
2015-03-16,5.0929
2015-03-17,5.1902
2015-03-18,5.1708
2015-03-19,5.1416
2015-03-20,4.7229
2015-03-23,4.7715
2015-03-24,4.8689
2015-03-25,4.8397
2015-03-26,4.8495
2015-03-30,4.8689
2015-03-31,4.8689
2015-04-01,4.8591
2015-04-02,4.8591
2015-04-07,4.8397
2015-04-08,4.8203
2015-04-09,4.7909
2015-04-10,4.7521
2015-04-13,4.7715
2015-04-14,4.7715
2015-04-15,4.6937
2015-04-16,4.7521
2015-04-17,4.6937
2015-04-20,4.6937
2015-04-21,4.6449
2015-04-22,4.6937
2015-04-23,4.7229
2015-04-24,4.6839
2015-04-27,4.7229
2015-04-28,4.7521
2015-04-29,4.9663
2015-04-30,4.8591
2015-05-04,4.8203
2015-05-05,4.8299
2015-05-06,4.8105
2015-05-07,4.8105
2015-05-08,4.8105
2015-05-11,4.8591
2015-05-12,4.8591
2015-05-13,4.7229
2015-05-14,4.8591
2015-05-15,4.8397
2015-05-18,4.8397
2015-05-19,5.0637
2015-05-20,5.0052
2015-05-21,5.0052
2015-05-22,5.0637
2015-05-25,4.7521
2015-05-26,4.8591
2015-05-27,5.0442
2015-05-28,5.3364
2015-05-29,5.239
2015-06-01,6.0375
2015-06-02,5.8232
2015-06-03,6.2322
2015-06-05,6.1835
2015-06-08,6.0179
2015-06-09,5.9887
2015-06-10,5.9693
2015-06-11,5.9985
2015-06-12,5.9595
2015-06-15,5.9985
2015-06-16,5.9498
2015-06-17,5.9693
2015-06-18,6.164
2015-06-19,6.2516
2015-06-22,6.164
2015-06-23,6.1153
2015-06-24,6.0375
2015-06-25,6.0375
2015-06-26,5.9011
2015-06-29,5.8024
2015-06-30,5.8222
2015-07-01,5.8222
2015-07-02,5.8024
2015-07-03,5.8518
2015-07-06,5.8024
2015-07-07,5.8419
2015-07-08,5.832
2015-07-09,5.7926
2015-07-10,5.7432
2015-07-13,5.8024
2015-07-14,5.8715
2015-07-15,5.8616
2015-07-16,5.7728
2015-07-17,5.6741
2015-07-20,5.6248
2015-07-21,5.6741
2015-07-22,5.6248
2015-07-23,5.6248
2015-07-24,5.6347
2015-07-27,5.6347
2015-07-28,5.6347
2015-07-29,5.8123
2015-07-30,5.8715
2015-07-31,5.8222
2015-08-03,5.8222
2015-08-04,5.911
2015-08-05,5.9208
2015-08-06,5.911
2015-08-07,5.8518
2015-08-10,5.8518
2015-08-11,5.8518
2015-08-12,5.8814
2015-08-13,5.8222
2015-08-14,5.6445
2015-08-17,5.8222
2015-08-18,5.6347
2015-08-19,5.6445
2015-08-20,5.8616
2015-08-21,5.8419
2015-08-24,5.4274
2015-08-25,5.4274
2015-08-26,5.2202
2015-08-27,5.2202
2015-08-28,5.2103
2015-08-31,5.1018
2015-09-01,5.0722
2015-09-02,5.0722
2015-09-03,5.1807
2015-09-04,5.2103
2015-09-07,5.1018
2015-09-08,5.1314
2015-09-09,5.1314
2015-09-10,5.2301
2015-09-11,5.2301
2015-09-14,5.2301
2015-09-15,5.2696
2015-09-16,5.3288
2015-09-17,5.3189
2015-09-18,5.2893
2015-09-21,5.2794
2015-09-22,5.2794
2015-09-23,5.3288
2015-09-24,5.2202
2015-09-25,5.1314
2015-09-28,5.1117
2015-09-29,4.9735
2015-09-30,4.9735
2015-10-01,4.5492
2015-10-02,4.6577
2015-10-05,4.638
2015-10-06,5.0525
2015-10-07,4.9834
2015-10-08,5.013
2015-10-09,4.9439
2015-10-12,4.8551
2015-10-13,4.8156
2015-10-14,4.8354
2015-10-15,4.7367
2015-10-16,4.7367
2015-10-19,4.7367
2015-10-20,4.7169
2015-10-21,4.6281
2015-10-22,4.7268
2015-10-23,4.7761
2015-10-26,4.7367
2015-10-27,4.7268
2015-10-28,4.6775
2015-10-29,4.638
2015-10-30,4.7169
2015-11-02,4.638
2015-11-03,4.638
2015-11-04,4.638
2015-11-05,4.7071
2015-11-06,4.6775
2015-11-09,4.638
2015-11-10,4.7367
2015-11-12,4.7367
2015-11-13,4.4406
2015-11-16,4.3025
2015-11-17,4.263
2015-11-18,4.2531
2015-11-19,4.1545
2015-11-20,4.1939
2015-11-23,4.2531
2015-11-24,4.263
2015-11-25,4.1939
2015-11-26,4.2531
2015-11-27,4.2137
2015-11-30,4.2038
2015-12-01,4.2433
2015-12-02,4.2334
2015-12-03,4.2038
2015-12-04,4.2235
2015-12-07,4.1446
2015-12-08,4.1446
2015-12-09,4.1446
2015-12-10,4.1643
2015-12-11,4.1643
2015-12-14,4.1446
2015-12-15,4.0854
2015-12-16,4.1051
2015-12-17,3.9275
2015-12-18,3.9078
2015-12-21,3.8683
2015-12-22,3.8387
2015-12-23,3.8387
2015-12-28,3.7597
2015-12-29,3.888
2015-12-30,3.7696
2016-01-04,3.7696
2016-01-05,3.7499
2016-01-07,3.7499
2016-01-08,3.7696
2016-01-11,3.7795
2016-01-12,3.8091
2016-01-13,3.8683
2016-01-14,3.8584
2016-01-15,3.7499
2016-01-18,3.6808
2016-01-19,3.7005
2016-01-20,3.6018
2016-01-21,3.6413
2016-01-22,3.8387
2016-01-25,3.8485
2016-01-26,3.8288
2016-01-27,3.8979
2016-01-28,3.9472
2016-02-01,3.9472
2016-02-02,3.9275
2016-02-03,3.9472
2016-02-04,3.9472
2016-02-05,3.9374
2016-02-08,3.9472
2016-02-10,3.9472
2016-02-11,3.9472
2016-02-12,3.9472
2016-02-15,3.9374
2016-02-16,3.9275
2016-02-17,3.8683
2016-02-18,3.9176
2016-02-19,4.0459
2016-02-22,3.9472
2016-02-23,3.9472
2016-02-24,3.9768
2016-02-25,3.8485
2016-02-26,3.9275
2016-02-29,3.9078
2016-03-01,3.9176
2016-03-04,3.9472
2016-03-07,4.0953
2016-03-08,4.0064
2016-03-09,3.9867
2016-03-10,3.9768
2016-03-11,3.9768
2016-03-14,3.9472
2016-03-15,3.9374
2016-03-16,3.9176
2016-03-17,3.9078
2016-03-18,3.9571
2016-03-21,3.9571
2016-03-22,3.9571
2016-03-23,4.0953
2016-03-24,4.1939
2016-03-29,4.1249
2016-03-30,4.1446
2016-03-31,4.1051
2016-04-01,4.0459
2016-04-04,4.1446
2016-04-05,4.1446
2016-04-06,4.1347
2016-04-07,4.0163
2016-04-08,3.9966
2016-04-11,4.0459
2016-04-12,4.0558
2016-04-13,4.0953
2016-04-14,4.0953
2016-04-15,4.115
2016-04-18,4.1742
2016-04-19,4.0953
2016-04-20,4.0459
2016-04-21,4.0459
2016-04-22,4.342
2016-04-25,4.3913
2016-04-26,4.4801
2016-04-27,4.4702
2016-04-28,4.4702
2016-04-29,4.4308
2016-05-02,4.4702
2016-05-04,4.4998
2016-05-05,4.4998
2016-05-06,4.4998
2016-05-09,4.5689
2016-05-10,4.6775
2016-05-11,4.6775
2016-05-12,4.6873
2016-05-13,4.6183
2016-05-16,4.411
2016-05-17,4.4308
2016-05-18,4.3913
2016-05-19,4.3814
2016-05-20,4.3814
2016-05-23,4.342
2016-05-24,4.342
2016-05-25,4.342
2016-05-27,4.342
2016-05-30,4.342
2016-05-31,4.342
2016-06-01,4.2531
2016-06-02,4.263
2016-06-03,4.0854
2016-06-06,4.0262
2016-06-07,3.9768
2016-06-08,3.9472
2016-06-09,3.9176
2016-06-10,3.9867
2016-06-13,3.9472
2016-06-14,3.7499
2016-06-15,3.7005
2016-06-16,3.6907
2016-06-17,3.6512
2016-06-20,3.6018
2016-06-21,3.60185
2016-06-22,3.65119
2016-06-23,3.7104
2016-06-24,3.74987
2016-06-27,3.69066
2016-06-28,3.74
2016-06-29,3.9
2016-06-30,3.88
2016-07-01,4
2016-07-04,3.98
2016-07-05,4
2016-07-06,3.85
2016-07-07,3.94
2016-07-08,3.93
2016-07-11,3.93
2016-07-12,3.93
2016-07-13,4.1
2016-07-14,4
2016-07-15,3.96
2016-07-18,3.9
2016-07-19,3.89
2016-07-20,3.87
2016-07-21,3.81
2016-07-22,3.78
2016-07-25,3.8
2016-07-26,3.8
2016-07-27,3.85
2016-07-28,3.83
2016-07-29,3.83
2016-08-01,3.83
2016-08-02,3.85
2016-08-03,3.79
2016-08-04,3.79
2016-08-05,3.69
2016-08-08,3.69
2016-08-09,3.65
2016-08-10,3.67
2016-08-11,3.71
2016-08-12,3.9
2016-08-16,3.95
2016-08-17,3.99
2016-08-18,3.9
2016-08-19,3.9
2016-08-24,3.88
2016-08-25,3.9
2016-08-26,3.75
2016-08-30,3.8
2016-08-31,3.8
2016-09-01,3.75
2016-09-02,3.62
2016-09-05,3.55
2016-09-06,3.55
2016-09-07,3.61
2016-09-08,3.63
2016-09-09,3.52
2016-09-12,3.46
2016-09-13,3.45
2016-09-14,3.36
2016-09-15,3.39
2016-09-16,3.4
2016-09-19,3.45
2016-09-20,3.4
2016-09-21,3.4
2016-09-22,3.4
2016-09-23,3.36
2016-09-26,3.35
2016-09-27,3.34
2016-09-28,3.34
2016-09-29,3.33
2016-09-30,3.33
2016-10-03,3.33
2016-10-04,3.32
2016-10-05,3.34
2016-10-06,3.32
2016-10-07,3.32
2016-10-10,3.33
2016-10-11,3.3
2016-10-12,3.25
2016-10-13,3.25
2016-10-14,3.25
2016-10-17,3.2
2016-10-21,3.2
2016-10-24,3.2
2016-10-25,3.25
2016-10-26,3.25
2016-10-27,3.2
2016-10-31,3.2
2016-11-03,3.05
2016-11-04,3.2
2016-11-09,3.2
2016-11-10,3.26
2016-11-14,3.25
2016-11-15,3.24
2016-11-16,3.24
2016-11-17,3.16
2016-11-18,3.16
2016-11-21,3.15
2016-11-22,3.15
2016-11-23,3.15
2016-11-24,3.15
2016-11-25,3.09
2016-11-28,3.1
2016-11-29,3.1
2016-11-30,3.1
2016-12-01,3.1
2016-12-02,3.15
2016-12-05,3.17
2016-12-06,3.17
2016-12-07,3.12
2016-12-08,3.15
2016-12-09,3.14
2016-12-12,3.18
2016-12-13,3.15
2016-12-14,3.13
2016-12-15,3.14
2016-12-16,3.05
2016-12-19,3
2016-12-20,2.94
2016-12-21,2.89
2016-12-22,2.75
2016-12-23,2.78
2016-12-27,2.76
2016-12-28,2.76
2016-12-29,2.76
2016-12-30,2.9
2017-01-02,2.86
2017-01-03,2.89
2017-01-04,2.81
2017-01-05,2.81
2017-01-09,2.79
2017-01-10,2.79
2017-01-11,2.82
2017-01-12,2.8
2017-01-13,2.8
2017-01-16,2.76
2017-01-17,2.76
2017-01-18,2.74
2017-01-19,2.75
2017-01-20,2.77
2017-01-23,2.76
2017-01-24,2.75
2017-01-25,2.78
2017-01-26,2.85
2017-01-27,2.8
2017-01-30,2.8
2017-01-31,2.81
2017-02-01,2.77
2017-02-02,2.78
2017-02-03,2.79
2017-02-06,2.71
2017-02-07,2.71
2017-02-08,2.69
2017-02-09,2.58
2017-02-10,2.65
2017-02-13,2.65
2017-02-14,2.65
2017-02-15,2.65
2017-02-16,2.65
2017-02-17,2.66
2017-02-20,2.6
2017-02-21,2.65
2017-02-22,2.66
2017-02-23,2.71
2017-02-24,2.69
2017-02-27,2.71
2017-02-28,2.71
2017-03-01,2.65
2017-03-02,2.67
2017-03-03,2.69
2017-03-06,2.69
2017-03-07,2.71
2017-03-08,2.74
2017-03-09,2.64
2017-03-10,2.7
2017-03-13,2.65
2017-03-14,2.64
2017-03-15,2.64
2017-03-16,2.6
2017-03-17,2.6
2017-03-20,2.57
2017-03-21,2.85
2017-03-22,2.82
2017-03-23,2.82
2017-03-24,2.8
2017-03-27,2.98
2017-03-28,2.89
2017-03-29,2.88
2017-03-30,2.96
2017-03-31,2.92
2017-04-03,2.94
2017-04-04,3
2017-04-05,3.35
2017-04-06,3.33
2017-04-07,3.28
2017-04-10,3.25
2017-04-11,3.16
2017-04-12,3.19
2017-04-13,3.11
2017-04-18,3.1
2017-04-19,3.17
2017-04-20,3.15
2017-04-21,3.15
2017-04-24,3.2
2017-04-25,3.2
2017-04-26,3.25
2017-04-27,3.27
2017-04-28,3.28
2017-05-02,3.21
2017-05-04,3.1
2017-05-05,3.1
2017-05-08,3.01
2017-05-09,3.07
2017-05-10,3.11
2017-05-11,3.01
2017-05-12,3
2017-05-15,3
2017-05-16,3.01
2017-05-17,3
2017-05-19,3
2017-05-22,2.96
2017-05-23,3
2017-05-24,3
2017-05-25,3.02
2017-05-26,3
2017-05-29,3
2017-05-30,2.95
2017-05-31,2.95
2017-06-01,3
2017-06-02,3
2017-06-05,2.95
2017-06-06,3.01
2017-06-07,3.01
2017-06-08,3
2017-06-09,3
2017-06-12,2.98
2017-06-13,2.99
2017-06-14,2.96
2017-06-16,2.96
2017-06-19,2.96
2017-06-22,2.88
2017-06-23,2.83
2017-06-26,2.83
2017-06-27,2.85
2017-06-28,2.97
2017-06-30,2.96
2017-07-03,3.05
2017-07-04,3.05
2017-07-05,3.03
2017-07-06,2.97
2017-07-07,2.99
2017-07-10,3
2017-07-11,2.87
2017-07-12,2.89
2017-07-13,2.88
2017-07-14,2.86
2017-07-17,2.9
2017-07-18,2.9
2017-07-20,2.91
2017-07-21,2.91
2017-07-24,2.91
2017-07-25,2.9
2017-07-28,2.86
2017-07-31,2.8
2017-08-02,2.8
2017-08-04,2.77
2017-08-08,2.77
2017-08-09,2.7
2017-08-10,2.8
2017-08-11,2.9
2017-08-14,2.87
2017-08-16,2.85
2017-08-17,2.75
2017-08-18,2.78
2017-08-21,2.73
2017-08-22,2.66
2017-08-24,2.81
2017-08-25,2.91
2017-08-28,2.94
2017-08-29,2.88
2017-08-30,2.88
2017-08-31,2.87
2017-09-01,2.9
2017-09-07,2.89
2017-09-08,2.9
2017-09-11,2.9
2017-09-12,2.9
2017-09-13,2.87
2017-09-14,2.87
2017-09-15,2.88
2017-09-18,2.91
2017-09-19,2.86
2017-09-20,2.81
2017-09-21,2.9
2017-09-22,2.91
2017-09-25,2.91
2017-09-26,2.9
2017-09-27,2.91
2017-09-28,2.89
2017-09-29,2.99
2017-10-02,2.97
2017-10-03,2.97
2017-10-04,2.96
2017-10-05,2.93
2017-10-06,2.92
2017-10-09,2.93
2017-10-10,2.93
2017-10-11,2.96
2017-10-12,2.91
2017-10-13,2.83
2017-10-16,2.93
2017-10-17,2.94
2017-10-18,2.89
2017-10-19,2.88
2017-10-20,2.88
2017-10-23,2.85
2017-10-24,2.86
2017-10-25,2.85
2017-10-26,2.81
2017-10-27,2.8
2017-10-30,2.85
2017-10-31,2.89
2017-11-07,2.91
2017-11-09,2.88
2017-11-10,2.88
2017-11-13,2.88
2017-11-14,2.88
2017-11-15,2.9
2017-11-16,2.9
2017-11-17,2.88
2017-11-20,2.73
2017-11-21,2.74
2017-11-22,2.65
2017-11-23,2.63
2017-11-24,2.61
2017-11-27,2.68
2017-11-29,2.6
2017-11-30,2.62
2017-12-01,2.52
2017-12-04,2.44
2017-12-05,2.44
2017-12-06,2.36
2017-12-07,2.27
2017-12-08,2.38
2017-12-11,2.3
2017-12-12,2.3
2017-12-13,2.38
2017-12-14,2.3
2017-12-15,2.25
2017-12-18,2.4
2017-12-19,2.32
2017-12-20,2.43
2017-12-21,2.42
2017-12-22,2.52
2017-12-27,2.49
2017-12-28,2.48
2017-12-29,2.46
2018-01-03,2.54
2018-01-04,2.6
2018-01-05,2.67
2018-01-08,2.73
2018-01-09,2.7
2018-01-10,2.52
2018-01-11,2.46
2018-01-12,2.5
2018-01-15,2.5
2018-01-16,2.47
2018-01-17,2.5
2018-01-18,2.48
2018-01-19,2.48
2018-01-22,2.46
2018-01-23,2.47
2018-01-25,2.49
2018-01-30,2.48
2018-02-01,2.5
2018-02-05,2.49
2018-02-06,2.4
2018-02-07,2.46
2018-02-09,2.4
2018-02-12,2.57
2018-02-13,2.43
2018-02-14,2.49
2018-02-15,2.5
2018-02-16,2.5
2018-02-19,2.53
2018-02-20,2.5
2018-02-21,2.46
2018-02-26,2.55
2018-02-27,2.55
2018-03-06,2.5
2018-03-07,2.55
2018-03-08,2.5
2018-03-09,2.5
2018-03-12,2.55
2018-03-14,2.5
2018-03-15,2.48
2018-03-19,2.45
2018-03-20,2.41
2018-03-21,2.42
2018-03-22,2.42
2018-03-23,2.42
2018-03-26,2.42
2018-03-27,2.42
2018-03-28,2.42
2018-03-29,2.42
2018-04-03,2.36
2018-04-04,2.39
2018-04-05,2.39
2018-04-06,2.37
2018-04-09,2.35
2018-04-10,2.45
2018-04-11,2.45
2018-04-12,2.48
2018-04-13,2.42
2018-04-16,2.42
2018-04-17,2.42
2018-04-19,2.36
2018-04-26,2.35
2018-04-27,2.35
2018-04-30,2.34
2018-05-04,2.3
2018-05-07,2.32
2018-05-08,2.31
2018-05-09,2.32
2018-05-10,2.32
2018-05-11,2.32
2018-05-14,2.32
2018-05-16,2.22
2018-05-17,2.31
2018-05-18,2.3
2018-05-21,2.26
2018-05-22,2.26
2018-05-25,2.21
2018-05-28,2.14
2018-05-29,2.14
2018-05-30,2.02
2018-06-01,1.98
2018-06-04,1.94
2018-06-05,1.96
2018-06-06,1.96
2018-06-07,2.16
2018-06-08,2.14
2018-06-11,2.15
2018-06-12,2.09
2018-06-13,2.1
2018-06-15,2.1
2018-06-19,2.1
2018-06-20,2.2
2018-06-21,2.15
2018-06-22,2.52
2018-06-25,2.59
2018-06-26,2.56
2018-06-27,2.56
2018-06-28,2.56
2018-06-29,2.54
2018-07-02,2.58
2018-07-03,2.7
2018-07-06,2.74
2018-07-09,2.75
2018-07-10,2.75
2018-07-11,2.64
2018-07-12,2.65
2018-07-13,2.6
2018-07-16,2.6
2018-07-18,2.52
2018-07-19,2.58
2018-07-26,2.53
2018-07-30,2.45
2018-07-31,2.52
2018-08-01,2.52
2018-08-02,2.53
2018-08-03,2.5
2018-08-06,2.5
2018-08-08,2.51
2018-08-09,2.55
2018-08-10,2.53
2018-08-13,2.46
2018-08-14,2.46
2018-08-16,2.47
2018-08-21,2.45
2018-08-22,2.5
2018-08-23,2.5
2018-08-24,2.5
2018-08-27,2.6
2018-08-28,2.58
2018-08-29,2.51
2018-08-30,2.51
2018-08-31,2.54
2018-09-03,2.49
2018-09-04,2.48
2018-09-06,2.43
2018-09-07,2.43
2018-09-10,2.36
2018-09-11,2.31
2018-09-12,2.24
2018-09-13,2.23
2018-09-14,2.23
2018-09-17,2.2
2018-09-18,2.16
2018-09-19,2.22
2018-09-20,2.24
2018-09-21,2.2
2018-09-24,2.16
2018-09-26,2.19
2018-09-27,2.26
2018-09-28,2.2
2018-10-01,2.3
2018-10-02,2.24
2018-10-03,2.26
2018-10-04,2.27
2018-10-05,2.22
2018-10-09,2.16
2018-10-10,2.17
2018-10-11,2
2018-10-12,2
2018-10-15,2.07
2018-10-16,2.08
2018-10-17,2.02
2018-10-18,2.04
2018-10-19,2.2
2018-10-22,2
2018-10-23,1.96
2018-10-24,2
2018-10-25,2
2018-10-26,2.02
2018-10-29,2.02
2018-10-30,2.01
2018-10-31,2.03
2018-11-02,2.05
2018-11-05,2.03
2018-11-06,1.96
2018-11-07,1.95
2018-11-08,1.95
2018-11-09,1.94
2018-11-13,1.84
2018-11-14,1.84
2018-11-16,1.85
2018-11-20,1.75
2018-11-21,1.74
2018-11-22,1.68
2018-11-23,1.67
2018-11-26,1.7
2018-11-27,1.7
2018-11-28,1.69
2018-11-29,1.71
2018-11-30,1.71
2018-12-03,1.65
2018-12-04,1.6
2018-12-05,1.6
2018-12-06,1.53
2018-12-07,1.51
2018-12-10,1.46
2018-12-11,1.43
2018-12-12,1.36
2018-12-13,1.36
2018-12-14,1.34
2018-12-17,1.39
2018-12-18,1.39
2018-12-19,1.32
2018-12-20,1.3
2018-12-21,1.31
2018-12-28,1.31
2019-01-02,1.32
2019-01-03,1.33
2019-01-04,1.41
2019-01-07,1.34
2019-01-08,1.41
2019-01-09,1.37
2019-01-10,1.37
2019-01-11,1.41
2019-01-14,1.4
2019-01-15,1.41
2019-01-16,1.43
2019-01-17,1.37
2019-01-18,1.38
2019-01-21,1.39
2019-01-22,1.36
2019-01-23,1.38
2019-01-24,1.35
2019-01-25,1.41
2019-01-28,1.4
2019-01-29,1.4
2019-01-30,1.41
2019-01-31,1.36
2019-02-01,1.39
2019-02-04,1.37
2019-02-05,1.39
2019-02-06,1.37
2019-02-07,1.32
2019-02-08,1.31
2019-02-11,1.32
2019-02-13,2.06
2019-02-14,2.08
2019-02-15,2.07
2019-02-18,2.08
2019-02-19,2.07
2019-02-20,2.1
2019-02-21,2.08
2019-02-22,2.13
2019-02-25,2.22
2019-02-26,2.21
2019-02-27,2.22
2019-02-28,2.19
2019-03-01,2.2
2019-03-04,2.19
2019-03-05,2.14
2019-03-06,2.1
2019-03-08,2.11
2019-03-11,2.11
2019-03-13,2.12
2019-03-14,2.16
2019-03-15,2.15
2019-03-18,2.15
2019-03-19,2.07
2019-03-20,2.07
2019-03-21,2.08
2019-03-22,2.08
2019-03-25,2.09
2019-03-26,2.08
2019-03-27,2.08
2019-03-28,2.06
2019-03-29,2.06
2019-04-01,2.07
2019-04-02,2.07
2019-04-03,2.09
2019-04-04,2.08
2019-04-05,2.08
2019-04-08,2.07
2019-04-09,2.28
2019-04-10,2.26
2019-04-11,2.3
2019-04-12,2.31
2019-04-15,2.31
2019-04-16,2.3
2019-04-17,2.3
2019-04-18,2.28
2019-04-23,2.29
2019-04-24,2.3
2019-04-25,2.3
2019-04-26,2.27
2019-04-29,2.23
2019-05-02,2.26
2019-05-06,2.25
2019-05-07,2.26
2019-05-08,2.13
2019-05-09,2.13
2019-05-10,2.3
2019-05-13,2.33
2019-05-14,2.28
2019-05-15,2.21
2019-05-16,2.2
2019-05-17,2.2
2019-05-21,2.16
2019-05-22,2.18
2019-05-23,2.18
2019-05-24,2.18
2019-05-27,2.18
2019-05-28,2.1
2019-05-29,2.06
2019-05-30,2.06
2019-05-31,2.05
2019-06-03,2.09
2019-06-04,2.05
2019-06-05,2.05
2019-06-06,2.06
2019-06-07,2.08
2019-06-10,2.08
2019-06-11,2.09
2019-06-12,2
2019-06-13,2.03
2019-06-14,2.03
2019-06-17,2.02
2019-06-18,1.9
2019-06-19,1.9
2019-06-21,1.9
2019-06-24,1.97
2019-06-25,1.97
2019-06-26,2.03
2019-06-27,2.07
2019-06-28,2.10
2019-07-01,2.08
2019-07-02,2.05
2019-07-03,2.05
2019-07-04,2.04
2019-07-05,2.1
2019-07-08,2.03
2019-07-10,2.03
2019-07-15,2.14
2019-07-16,2.07
2019-07-17,2.13
2019-07-18,2.14
2019-07-19,2.14
2019-07-22,2.1
2019-07-23,2
2019-07-24,2.02
2019-07-25,2.1
2019-07-26,2.1
2019-07-29,2.1
2019-07-30,2.1
2019-07-31,2.1
2019-08-01,2.08
2019-08-02,2.08
2019-08-05,2.02
2019-08-06,2.08
2019-08-07,2.08
2019-08-08,2.08
2019-08-09,2.02
2019-08-12,2.07
2019-08-13,2.05
2019-08-14,2.02
2019-08-16,2.05
2019-08-19,1.97
2019-08-20,2.05
2019-08-21,2.05
2019-08-22,1.97
2019-08-23,2.01
2019-08-26,2.05
2019-08-27,2.05
2019-08-28,2.14
2019-08-29,2.14
2019-08-30,2.14
2019-09-02,2.15
2019-09-03,2.15
2019-09-04,2.1
2019-09-05,2
2019-09-09,2.15
2019-09-10,2.03
2019-09-11,2.15
2019-09-12,2.01
2019-09-17,2.15
2019-09-18,1.97
2019-09-20,2.05
2019-09-23,2.15
2019-10-01,2.15
2019-10-02,2.05
2019-10-03,2.04
2019-10-04,2
2019-10-07,2.02
2019-10-08,2.02
2019-10-09,2.02
2019-10-10,2.02
2019-10-11,2
2019-10-15,2.04
2019-10-16,2.04
2019-10-17,2.04
2019-10-18,2.04
2019-10-21,1.965
2019-10-22,2.04
2019-10-23,2.04
2019-10-24,2.04
2019-10-25,2.04
2019-10-28,2.04
2019-10-29,2.06
2019-10-30,1.98
2019-10-31,1.95
2019-11-04,2.06
2019-11-05,2.1
2019-11-06,2.3
2019-11-07,2.2
2019-11-08,2.3
2019-11-12,2.3
2019-11-13,2.31
2019-11-14,2.31
2019-11-15,2.32
2019-11-18,2.31
2019-11-19,2.31
2019-11-20,2.31
2019-11-21,2.32
2019-11-22,2.18
2019-11-25,1.99
2019-11-26,2.05
2019-11-27,2.05
2019-11-28,2.03
2019-11-29,2.05
2019-12-02,2.05
2019-12-03,2.08
2019-12-04,1.975
2019-12-05,1.99
2019-12-06,1.99
2019-12-09,2.08
2019-12-10,2.08
2019-12-11,2.05
2019-12-12,2.05
2019-12-13,2.05
2019-12-16,2.05
2019-12-17,2.05
2019-12-18,2.05
2019-12-19,1.965
2019-12-20,1.94
2019-12-30,2.01
2020-01-02,1.91
2020-01-03,1.97
2020-01-07,1.975
2020-01-08,1.975
2020-01-09,1.975
2020-01-10,1.975
2020-01-13,1.975
2020-01-14,1.975
2020-01-15,1.975
2020-01-16,1.975
2020-01-17,1.93
2020-01-20,1.925
2020-01-21,1.915
2020-01-22,1.915
2020-01-23,1.915
2020-01-24,1.93
2020-01-27,2
2020-01-28,1.84
2020-01-29,1.935
2020-01-30,1.935
2020-01-31,2
2020-02-03,2
2020-02-04,2
2020-02-05,2
2020-02-06,1.82
2020-02-07,1.86
2020-02-10,1.86
2020-02-11,1.885
2020-02-12,2.15
2020-02-13,2.01
2020-02-14,1.89
2020-02-18,1.87
2020-02-19,1.88
2020-02-24,1.875
2020-02-25,1.78
2020-02-26,1.75
2020-02-27,1.75
2020-02-28,1.75
2020-03-02,1.75
2020-03-03,1.75
2020-03-04,1.75
2020-03-05,1.75
2020-03-09,1.63
2020-03-10,1.55
2020-03-11,1.48
2020-03-12,1.455
2020-03-13,1.38
2020-03-16,1.46
2020-03-17,1.5
2020-03-18,1.45
2020-03-19,1.48
2020-03-20,1.5
2020-03-23,1.455
2020-03-24,1.49
2020-03-25,1.5
2020-03-26,1.44
2020-03-27,1.5
2020-03-30,1.4
2020-03-31,1.4
2020-04-01,1.46
2020-04-03,1.46
2020-04-06,1.52
2020-04-07,1.5
2020-04-08,1.51
2020-04-09,1.6
2020-04-14,1.54
2020-04-15,1.4
2020-04-16,1.48
2020-04-17,1.48
2020-04-20,1.48
2020-04-21,1.48
2020-04-23,1.42
2020-04-24,1.49
2020-04-27,1.48
2020-04-28,1.62
2020-04-29,1.48
2020-04-30,1.49
2020-05-05,1.555
2020-05-06,1.71
2020-05-07,1.71
2020-05-08,1.67
2020-05-11,1.675
2020-05-12,1.85
2020-05-13,1.75
2020-05-18,1.8
2020-05-20,1.81
2020-05-21,1.82
2020-05-22,1.82
2020-05-25,1.72
2020-05-26,1.77
2020-05-27,1.8
2020-05-28,1.87
2020-05-29,1.85
2020-06-01,1.85
2020-06-02,1.85
2020-06-03,1.87
2020-06-04,2.04
2020-06-05,2.04
2020-06-08,2.04
2020-06-09,2.04
2020-06-10,2.04
2020-06-12,1.91
2020-06-15,2.08
2020-06-16,2.21
2020-06-17,2.21
2020-06-18,2.21
2020-06-19,2.21
2020-06-22,2.29
2020-06-23,2.29
2020-06-24,2.29
2020-06-25,2.29
2020-06-26,2.07
2020-06-29,2.22
2020-06-30,2.19
2020-07-01,2.1
2020-07-02,2.15
2020-07-03,2.15
2020-07-06,1.94
2020-07-07,1.91
2020-07-09,1.95
2020-07-13,1.96
2020-07-14,1.95
2020-07-15,1.945
2020-07-16,1.94
2020-07-17,1.935
2020-07-20,1.935
2020-07-21,1.845
2020-07-22,1.935
2020-07-23,1.935
2020-07-24,1.935
2020-07-27,1.89
2020-07-28,1.83
2020-07-29,1.935
2020-07-30,1.83
2020-07-31,1.77
2020-08-03,1.8
2020-08-04,1.8
2020-08-05,2.33
2020-08-06,2.9
2020-08-07,3.31
2020-08-10,2.92
2020-08-11,2.49
2020-08-12,2.06
2020-08-13,2.17
2020-08-14,2.17
2020-08-17,2.15
2020-08-18,2.04
2020-08-19,2
2020-08-20,1.975
2020-08-21,1.89
2020-08-24,1.88
2020-08-25,1.97
2020-08-26,2.05
2020-08-27,2.07
2020-08-28,2.05
2020-08-31,1.99
2020-09-01,2.05
2020-09-02,1.97
2020-09-03,2.06
2020-09-04,2.06
2020-09-07,2.06
2020-09-08,2.03
2020-09-09,1.99
2020-09-10,2
2020-09-11,1.985
2020-09-14,1.94
2020-09-15,1.91
2020-09-16,1.915
2020-09-17,1.91
2020-09-18,1.91
2020-09-21,1.92
2020-09-22,2
2020-09-23,1.97
2020-09-24,1.91
2020-09-25,1.875
2020-09-28,1.875
2020-09-29,1.94
2020-09-30,2.04
2020-10-01,1.96
2020-10-02,1.92
2020-10-05,1.965
2020-10-06,1.915
2020-10-07,1.94
2020-10-08,2.38
2020-10-09,2.32
2020-10-12,2.42
2020-10-13,2.4
2020-10-14,2.34
2020-10-15,2.25
2020-10-16,2.12
2020-10-19,2.11
2020-10-20,2.25
2020-10-21,2.16
2020-10-22,2.1
2020-10-23,2.01
